Time (sec)	¥ÄZ/Z0 (%)	¥ÄZ/Z0 (%) with a smoothing filter
0.001	0.36626	-0.80502
0.1	0.35084	-0.8043
0.199	0.33555	-0.80357
0.298	0.32039	-0.80285
0.398	0.30535	-0.80213
0.497	0.29045	-0.80141
0.596	0.27567	-0.80069
0.696	0.26103	-0.79997
0.795	0.24651	-0.79924
0.894	0.23213	-0.79852
0.994	0.21787	-0.7978
1.093	0.20374	-0.79708
1.192	0.18974	-0.79636
1.291	0.17587	-0.79564
1.391	0.16213	-0.79492
1.49	0.14851	-0.7942
1.589	0.13503	-0.79348
1.689	0.12168	-0.79276
1.788	0.10845	-0.79204
1.887	0.09536	-0.79132
1.987	0.08239	-0.7906
2.086	0.06955	-0.78989
2.185	0.05685	-0.78917
2.285	0.04427	-0.78845
2.384	0.03182	-0.78773
2.483	0.0195	-0.78701
2.582	0.00731	-0.78629
2.682	-0.00475	-0.78558
2.781	-0.01669	-0.78486
2.88	-0.02849	-0.78414
2.98	-0.04017	-0.78342
3.079	-0.05171	-0.78271
3.178	-0.06313	-0.78199
3.278	-0.07441	-0.78127
3.377	-0.08557	-0.78055
3.476	-0.0966	-0.77984
3.575	-0.1075	-0.77912
3.675	-0.11827	-0.77841
3.774	-0.12891	-0.77769
3.873	-0.13942	-0.77697
3.973	-0.14981	-0.77626
4.072	-0.16006	-0.77554
4.171	-0.17019	-0.77483
4.271	-0.18018	-0.77411
4.37	-0.19005	-0.7734
4.469	-0.19978	-0.77268
4.568	-0.20939	-0.77197
4.668	-0.21887	-0.77125
4.767	-0.22822	-0.77054
4.866	-0.23744	-0.76982
4.966	-0.24653	-0.76911
5.065	-0.25549	-0.7684
5.164	-0.26433	-0.76768
5.264	-0.27303	-0.76697
5.363	-0.2816	-0.76626
5.462	-0.29005	-0.76554
5.562	-0.29836	-0.76483
5.661	-0.30655	-0.76412
5.76	-0.31461	-0.7634
5.859	-0.32254	-0.76269
5.959	-0.33034	-0.76198
6.058	-0.33801	-0.76127
6.157	-0.34555	-0.76055
6.257	-0.35296	-0.75984
6.356	-0.36024	-0.75913
6.455	-0.3674	-0.75842
6.555	-0.37442	-0.75771
6.654	-0.38132	-0.757
6.753	-0.38808	-0.75629
6.852	-0.39472	-0.75557
6.952	-0.40123	-0.75486
7.051	-0.40761	-0.75415
7.15	-0.41385	-0.75344
7.25	-0.41997	-0.75273
7.349	-0.42597	-0.75202
7.448	-0.43183	-0.75131
7.548	-0.43756	-0.7506
7.647	-0.44316	-0.74989
7.746	-0.44864	-0.74918
7.845	-0.45398	-0.74847
7.945	-0.4592	-0.74777
8.044	-0.46429	-0.74706
8.143	-0.46924	-0.74635
8.243	-0.47407	-0.74564
8.342	-0.47877	-0.74493
8.441	-0.48334	-0.74422
8.541	-0.48778	-0.74352
8.64	-0.49209	-0.74281
8.739	-0.49628	-0.7421
8.839	-0.50033	-0.74139
8.938	-0.50425	-0.74068
9.037	-0.50805	-0.73998
9.136	-0.51172	-0.73927
9.236	-0.51525	-0.73856
9.335	-0.51866	-0.73786
9.434	-0.52194	-0.73715
9.534	-0.52509	-0.73644
9.633	-0.52811	-0.73574
9.732	-0.531	-0.73503
9.832	-0.53376	-0.73433
9.931	-0.53639	-0.73362
10.03	-0.53883	-0.73292
10.129	-0.54064	-0.73221
10.229	-0.54147	-0.7315
10.328	-0.54218	-0.7308
10.427	-0.54234	-0.73009
10.527	-0.54178	-0.72939
10.626	-0.54036	-0.72869
10.725	-0.5368	-0.72798
10.825	-0.531	-0.72728
10.924	-0.5219	-0.72657
11.023	-0.51046	-0.72587
11.122	-0.49646	-0.72517
11.222	-0.48111	-0.72446
11.321	-0.46493	-0.72376
11.42	-0.44827	-0.72306
11.52	-0.43192	-0.72235
11.619	-0.41586	-0.72165
11.718	-0.40177	-0.72095
11.818	-0.39005	-0.72024
11.917	-0.37955	-0.71954
12.016	-0.37023	-0.71884
12.116	-0.36032	-0.71814
12.215	-0.34958	-0.71744
12.314	-0.33848	-0.71674
12.413	-0.32752	-0.71603
12.513	-0.31625	-0.71533
12.612	-0.3046	-0.71463
12.711	-0.29316	-0.71393
12.811	-0.28213	-0.71323
12.91	-0.27339	-0.71253
13.009	-0.26539	-0.71183
13.109	-0.25799	-0.71113
13.208	-0.25106	-0.71043
13.307	-0.2449	-0.70973
13.406	-0.24148	-0.70903
13.506	-0.24049	-0.70833
13.605	-0.24224	-0.70763
13.704	-0.24434	-0.70693
13.804	-0.24683	-0.70623
13.903	-0.25009	-0.70553
14.002	-0.25345	-0.70483
14.102	-0.25787	-0.70413
14.201	-0.26246	-0.70344
14.3	-0.26719	-0.70274
14.399	-0.27245	-0.70204
14.499	-0.27826	-0.70134
14.598	-0.28444	-0.70064
14.697	-0.29184	-0.69995
14.797	-0.29928	-0.69925
14.896	-0.3076	-0.69855
14.995	-0.31655	-0.69785
15.095	-0.32585	-0.69716
15.194	-0.33632	-0.69646
15.293	-0.34731	-0.69576
15.393	-0.35825	-0.69507
15.492	-0.36859	-0.69437
15.591	-0.37853	-0.69368
15.69	-0.38763	-0.69298
15.79	-0.39686	-0.69228
15.889	-0.40504	-0.69159
15.988	-0.41145	-0.69089
16.088	-0.41591	-0.6902
16.187	-0.41855	-0.6895
16.286	-0.42149	-0.68881
16.386	-0.42341	-0.68811
16.485	-0.42612	-0.68742
16.584	-0.42843	-0.68672
16.683	-0.42973	-0.68603
16.783	-0.43103	-0.68533
16.882	-0.43046	-0.68464
16.981	-0.42967	-0.68395
17.081	-0.42821	-0.68325
17.18	-0.42629	-0.68256
17.279	-0.42566	-0.68187
17.379	-0.42557	-0.68117
17.478	-0.42619	-0.68048
17.577	-0.42823	-0.67979
17.676	-0.42974	-0.6791
17.776	-0.43073	-0.6784
17.875	-0.43178	-0.67771
17.974	-0.43183	-0.67702
18.074	-0.43236	-0.67633
18.173	-0.43426	-0.67564
18.272	-0.43744	-0.67494
18.372	-0.44153	-0.67425
18.471	-0.44766	-0.67356
18.57	-0.45467	-0.67287
18.67	-0.46183	-0.67218
18.769	-0.46992	-0.67149
18.868	-0.47678	-0.6708
18.967	-0.48232	-0.67011
19.067	-0.48586	-0.66942
19.166	-0.48835	-0.66873
19.265	-0.491	-0.66804
19.365	-0.49322	-0.66735
19.464	-0.49607	-0.66666
19.563	-0.49926	-0.66597
19.663	-0.50125	-0.66528
19.762	-0.50337	-0.66459
19.861	-0.5054	-0.6639
19.96	-0.50598	-0.66321
20.06	-0.50636	-0.66252
20.159	-0.50654	-0.66184
20.258	-0.50716	-0.66115
20.358	-0.50821	-0.66046
20.457	-0.50931	-0.65977
20.556	-0.51048	-0.65908
20.656	-0.51057	-0.6584
20.755	-0.51119	-0.65771
20.854	-0.51214	-0.65702
20.953	-0.51358	-0.65633
21.053	-0.51558	-0.65565
21.152	-0.51718	-0.65496
21.251	-0.51871	-0.65427
21.351	-0.51968	-0.65359
21.45	-0.52097	-0.6529
21.549	-0.52229	-0.65222
21.649	-0.52355	-0.65153
21.748	-0.52549	-0.65084
21.847	-0.52787	-0.65016
21.947	-0.53157	-0.64947
22.046	-0.53592	-0.64879
22.145	-0.53965	-0.6481
22.244	-0.53433	-0.64742
22.344	-0.52879	-0.64673
22.443	-0.52241	-0.64605
22.542	-0.51583	-0.64536
22.642	-0.50861	-0.64468
22.741	-0.50098	-0.644
22.84	-0.49423	-0.64331
22.94	-0.48895	-0.64263
23.039	-0.48569	-0.64195
23.138	-0.48447	-0.64126
23.237	-0.4851	-0.64058
23.337	-0.48709	-0.6399
23.436	-0.48991	-0.63921
23.535	-0.49365	-0.63853
23.635	-0.4975	-0.63785
23.734	-0.50118	-0.63717
23.833	-0.50421	-0.63648
23.933	-0.50595	-0.6358
24.032	-0.50689	-0.63512
24.131	-0.50697	-0.63444
24.23	-0.50711	-0.63376
24.33	-0.50814	-0.63308
24.429	-0.50959	-0.63239
24.528	-0.51121	-0.63171
24.628	-0.5123	-0.63103
24.727	-0.51259	-0.63035
24.826	-0.51296	-0.62967
24.926	-0.51308	-0.62899
25.025	-0.51299	-0.62831
25.124	-0.51155	-0.62763
25.224	-0.50787	-0.62695
25.323	-0.50264	-0.62627
25.422	-0.49498	-0.62559
25.521	-0.48563	-0.62491
25.621	-0.47675	-0.62423
25.72	-0.46975	-0.62355
25.819	-0.46664	-0.62288
25.919	-0.46731	-0.6222
26.018	-0.46977	-0.62152
26.117	-0.47329	-0.62084
26.217	-0.47608	-0.62016
26.316	-0.47859	-0.61948
26.415	-0.48161	-0.61881
26.514	-0.4837	-0.61813
26.614	-0.48543	-0.61745
26.713	-0.48658	-0.61677
26.812	-0.48628	-0.6161
26.912	-0.48533	-0.61542
27.011	-0.48394	-0.61474
27.11	-0.4826	-0.61407
27.21	-0.4817	-0.61339
27.309	-0.48141	-0.61271
27.408	-0.48064	-0.61204
27.507	-0.47979	-0.61136
27.607	-0.47968	-0.61068
27.706	-0.48071	-0.61001
27.805	-0.48376	-0.60933
27.905	-0.48919	-0.60866
28.004	-0.49585	-0.60798
28.103	-0.50315	-0.60731
28.203	-0.51019	-0.60663
28.302	-0.51624	-0.60596
28.401	-0.52298	-0.60528
28.501	-0.53015	-0.60461
28.6	-0.53863	-0.60394
28.699	-0.54838	-0.60326
28.798	-0.55764	-0.60259
28.898	-0.56666	-0.60191
28.997	-0.57432	-0.60124
29.096	-0.58099	-0.60057
29.196	-0.5869	-0.59989
29.295	-0.59195	-0.59922
29.394	-0.5979	-0.59855
29.494	-0.60317	-0.59788
29.593	-0.60768	-0.5972
29.692	-0.6115	-0.59653
29.791	-0.61453	-0.59586
29.891	-0.61794	-0.59519
29.99	-0.62437	-0.59452
30.089	-0.63171	-0.59384
30.189	-0.63961	-0.59317
30.288	-0.64755	-0.5925
30.387	-0.65397	-0.59183
30.487	-0.66025	-0.59116
30.586	-0.66689	-0.59049
30.685	-0.67495	-0.58982
30.784	-0.68423	-0.58915
30.884	-0.69563	-0.58848
30.983	-0.70889	-0.58781
31.082	-0.72259	-0.58714
31.182	-0.73721	-0.58647
31.281	-0.75226	-0.5858
31.38	-0.76725	-0.58513
31.48	-0.78246	-0.58446
31.579	-0.79757	-0.58379
31.678	-0.81144	-0.58312
31.778	-0.82403	-0.58245
31.877	-0.8358	-0.58178
31.976	-0.84626	-0.58112
32.075	-0.85682	-0.58045
32.175	-0.86656	-0.57978
32.274	-0.87624	-0.57911
32.373	-0.88532	-0.57844
32.473	-0.89353	-0.57778
32.572	-0.90241	-0.57711
32.671	-0.91116	-0.57644
32.771	-0.91978	-0.57577
32.87	-0.92943	-0.57511
32.969	-0.94002	-0.57444
33.068	-0.95213	-0.57377
33.168	-0.96672	-0.57311
33.267	-0.98247	-0.57244
33.366	-0.99808	-0.57178
33.466	-1.01325	-0.57111
33.565	-1.02718	-0.57044
33.664	-1.04014	-0.56978
33.764	-1.0527	-0.56911
33.863	-1.0644	-0.56845
33.962	-1.07506	-0.56778
34.061	-1.08493	-0.56712
34.161	-1.09429	-0.56645
34.26	-1.10308	-0.56579
34.359	-1.11118	-0.56512
34.459	-1.11749	-0.56446
34.558	-1.12211	-0.5638
34.657	-1.1246	-0.56313
34.757	-1.12559	-0.56247
34.856	-1.12582	-0.5618
34.955	-1.12525	-0.56114
35.055	-1.12445	-0.56048
35.154	-1.12334	-0.55981
35.253	-1.12211	-0.55915
35.352	-1.12138	-0.55849
35.452	-1.12039	-0.55783
35.551	-1.12015	-0.55716
35.65	-1.12016	-0.5565
35.75	-1.11997	-0.55584
35.849	-1.12084	-0.55518
35.948	-1.12238	-0.55452
36.048	-1.1252	-0.55385
36.147	-1.12935	-0.55319
36.246	-1.13439	-0.55253
36.345	-1.13983	-0.55187
36.445	-1.14516	-0.55121
36.544	-1.14996	-0.55055
36.643	-1.1541	-0.54989
36.743	-1.1577	-0.54923
36.842	-1.16155	-0.54857
36.941	-1.16508	-0.54791
37.041	-1.16795	-0.54725
37.14	-1.17043	-0.54659
37.239	-1.17128	-0.54593
37.338	-1.17129	-0.54527
37.438	-1.17109	-0.54461
37.537	-1.16978	-0.54395
37.636	-1.16859	-0.54329
37.736	-1.16739	-0.54263
37.835	-1.16563	-0.54198
37.934	-1.16384	-0.54132
38.034	-1.1613	-0.54066
38.133	-1.15891	-0.54
38.232	-1.15654	-0.53934
38.332	-1.15491	-0.53869
38.431	-1.1532	-0.53803
38.53	-1.14973	-0.53737
38.629	-1.14568	-0.53671
38.729	-1.14085	-0.53606
38.828	-1.13583	-0.5354
38.927	-1.13215	-0.53474
39.027	-1.12933	-0.53409
39.126	-1.12655	-0.53343
39.225	-1.12346	-0.53277
39.325	-1.11918	-0.53212
39.424	-1.11232	-0.53146
39.523	-1.10348	-0.53081
39.622	-1.09403	-0.53015
39.722	-1.08354	-0.5295
39.821	-1.07329	-0.52884
39.92	-1.06377	-0.52819
40.02	-1.05357	-0.52753
40.119	-1.0445	-0.52688
40.218	-1.03583	-0.52622
40.318	-1.02745	-0.52557
40.417	-1.02002	-0.52491
40.516	-1.01275	-0.52426
40.615	-1.00596	-0.52361
40.715	-0.9986	-0.52295
40.814	-0.99038	-0.5223
40.913	-0.98082	-0.52164
41.013	-0.97014	-0.52099
41.112	-0.95845	-0.52034
41.211	-0.94619	-0.51969
41.311	-0.93338	-0.51903
41.41	-0.91974	-0.51838
41.509	-0.9061	-0.51773
41.609	-0.89214	-0.51708
41.708	-0.87719	-0.51642
41.807	-0.86113	-0.51577
41.906	-0.84303	-0.51512
42.006	-0.82333	-0.51447
42.105	-0.80313	-0.51382
42.204	-0.7915	-0.51317
42.304	-0.7792	-0.51252
42.403	-0.76678	-0.51187
42.502	-0.75391	-0.51121
42.602	-0.741	-0.51056
42.701	-0.72895	-0.50991
42.8	-0.71707	-0.50926
42.899	-0.70554	-0.50861
42.999	-0.69407	-0.50796
43.098	-0.68283	-0.50731
43.197	-0.67156	-0.50666
43.297	-0.65962	-0.50602
43.396	-0.64751	-0.50537
43.495	-0.63488	-0.50472
43.595	-0.62161	-0.50407
43.694	-0.60876	-0.50342
43.793	-0.59589	-0.50277
43.892	-0.58317	-0.50212
43.992	-0.57073	-0.50148
44.091	-0.5576	-0.50083
44.19	-0.54411	-0.50018
44.29	-0.52843	-0.49953
44.389	-0.51139	-0.49888
44.488	-0.49363	-0.49824
44.588	-0.47539	-0.49759
44.687	-0.45755	-0.49694
44.786	-0.4391	-0.4963
44.886	-0.42035	-0.49565
44.985	-0.40147	-0.495
45.084	-0.38384	-0.49436
45.183	-0.36863	-0.49371
45.283	-0.35471	-0.49306
45.382	-0.34238	-0.49242
45.481	-0.33075	-0.49177
45.581	-0.31875	-0.49113
45.68	-0.30652	-0.49048
45.779	-0.29334	-0.48984
45.879	-0.27913	-0.48919
45.978	-0.26492	-0.48855
46.077	-0.25029	-0.4879
46.176	-0.23555	-0.48726
46.276	-0.22063	-0.48661
46.375	-0.20484	-0.48597
46.474	-0.18971	-0.48533
46.574	-0.17424	-0.48468
46.673	-0.1594	-0.48404
46.772	-0.14656	-0.4834
46.872	-0.1352	-0.48275
46.971	-0.12591	-0.48211
47.07	-0.11801	-0.48147
47.169	-0.11064	-0.48082
47.269	-0.10447	-0.48018
47.368	-0.09956	-0.47954
47.467	-0.09673	-0.4789
47.567	-0.09529	-0.47825
47.666	-0.09414	-0.47761
47.765	-0.09393	-0.47697
47.865	-0.09302	-0.47633
47.964	-0.0913	-0.47569
48.063	-0.08905	-0.47505
48.163	-0.08644	-0.47441
48.262	-0.08424	-0.47376
48.361	-0.08236	-0.47312
48.46	-0.08086	-0.47248
48.56	-0.07858	-0.47184
48.659	-0.07551	-0.4712
48.758	-0.07258	-0.47056
48.858	-0.07034	-0.46992
48.957	-0.06976	-0.46928
49.056	-0.07043	-0.46864
49.156	-0.07229	-0.468
49.255	-0.0742	-0.46737
49.354	-0.07533	-0.46673
49.453	-0.07683	-0.46609
49.553	-0.07829	-0.46545
49.652	-0.08013	-0.46481
49.751	-0.08193	-0.46417
49.851	-0.08214	-0.46353
49.95	-0.07858	-0.4629
50.049	-0.07216	-0.46226
50.149	-0.06438	-0.46162
50.248	-0.0552	-0.46098
50.347	-0.04723	-0.46034
50.446	-0.03954	-0.45971
50.546	-0.03132	-0.45907
50.645	-0.02289	-0.45843
50.744	-0.01441	-0.4578
50.844	-0.00612	-0.45716
50.943	0.00171	-0.45652
51.042	0.00763	-0.45589
51.142	0.01215	-0.45525
51.241	0.01528	-0.45462
51.34	0.01698	-0.45398
51.44	0.0179	-0.45334
51.539	0.01844	-0.45271
51.638	0.01888	-0.45207
51.737	0.0193	-0.45144
51.837	0.01996	-0.4508
51.936	0.02049	-0.45017
52.035	0.02564	-0.44953
52.135	0.02891	-0.4489
52.234	0.03124	-0.44827
52.333	0.03238	-0.44763
52.433	0.03277	-0.447
52.532	0.03309	-0.44636
52.631	0.03249	-0.44573
52.73	0.03138	-0.4451
52.83	0.03108	-0.44446
52.929	0.03147	-0.44383
53.028	0.033	-0.4432
53.128	0.03552	-0.44257
53.227	0.03902	-0.44193
53.326	0.04247	-0.4413
53.426	0.04639	-0.44067
53.525	0.05076	-0.44004
53.624	0.05505	-0.43941
53.723	0.06023	-0.43877
53.823	0.06595	-0.43814
53.922	0.0718	-0.43751
54.021	0.07675	-0.43688
54.121	0.08089	-0.43625
54.22	0.08376	-0.43562
54.319	0.08552	-0.43499
54.419	0.08633	-0.43436
54.518	0.0861	-0.43373
54.617	0.0845	-0.4331
54.717	0.08094	-0.43247
54.816	0.07604	-0.43184
54.915	0.07013	-0.43121
55.014	0.06287	-0.43058
55.114	0.05562	-0.42995
55.213	0.04859	-0.42932
55.312	0.04196	-0.42869
55.412	0.03523	-0.42806
55.511	0.02915	-0.42743
55.61	0.02287	-0.4268
55.71	0.01657	-0.42618
55.809	0.01165	-0.42555
55.908	0.00683	-0.42492
56.007	0.00324	-0.42429
56.107	3.46E-04	-0.42366
56.206	-0.00192	-0.42304
56.305	-0.00361	-0.42241
56.405	-0.00539	-0.42178
56.504	-0.00881	-0.42115
56.603	-0.01353	-0.42053
56.703	-0.01947	-0.4199
56.802	-0.0261	-0.41927
56.901	-0.03228	-0.41865
57	-0.03852	-0.41802
57.1	-0.04523	-0.4174
57.199	-0.05284	-0.41677
57.298	-0.06074	-0.41614
57.398	-0.06936	-0.41552
57.497	-0.07789	-0.41489
57.596	-0.08624	-0.41427
57.696	-0.09476	-0.41364
57.795	-0.10328	-0.41302
57.894	-0.11244	-0.41239
57.994	-0.12266	-0.41177
58.093	-0.1332	-0.41115
58.192	-0.14425	-0.41052
58.291	-0.15446	-0.4099
58.391	-0.16383	-0.40927
58.49	-0.17316	-0.40865
58.589	-0.18189	-0.40803
58.689	-0.19084	-0.4074
58.788	-0.20011	-0.40678
58.887	-0.20909	-0.40616
58.987	-0.21815	-0.40553
59.086	-0.2271	-0.40491
59.185	-0.23563	-0.40429
59.284	-0.24465	-0.40367
59.384	-0.25531	-0.40305
59.483	-0.26703	-0.40242
59.582	-0.27937	-0.4018
59.682	-0.29215	-0.40118
59.781	-0.30336	-0.40056
59.88	-0.31337	-0.39994
59.98	-0.32345	-0.39932
60.079	-0.33295	-0.3987
60.178	-0.34235	-0.39807
60.277	-0.35185	-0.39745
60.377	-0.36133	-0.39683
60.476	-0.37065	-0.39621
60.575	-0.38042	-0.39559
60.675	-0.39074	-0.39497
60.774	-0.40175	-0.39435
60.873	-0.41355	-0.39373
60.973	-0.42606	-0.39311
61.072	-0.44011	-0.39249
61.171	-0.46383	-0.39188
61.271	-0.48768	-0.39126
61.37	-0.51108	-0.39064
61.469	-0.53342	-0.39002
61.568	-0.55509	-0.3894
61.668	-0.5769	-0.38878
61.767	-0.59892	-0.38816
61.866	-0.62163	-0.38755
61.966	-0.64406	-0.38693
62.065	-0.66599	-0.38631
62.164	-0.68722	-0.38569
62.264	-0.7076	-0.38508
62.363	-0.72749	-0.38446
62.462	-0.74722	-0.38384
62.561	-0.76663	-0.38323
62.661	-0.7857	-0.38261
62.76	-0.80453	-0.38199
62.859	-0.82164	-0.38138
62.959	-0.83794	-0.38076
63.058	-0.85268	-0.38014
63.157	-0.86651	-0.37953
63.257	-0.88079	-0.37891
63.356	-0.89475	-0.3783
63.455	-0.90889	-0.37768
63.554	-0.9218	-0.37707
63.654	-0.9318	-0.37645
63.753	-0.93986	-0.37584
63.852	-0.9455	-0.37522
63.952	-0.94968	-0.37461
64.051	-0.95326	-0.374
64.15	-0.95495	-0.37338
64.25	-0.95655	-0.37277
64.349	-0.95755	-0.37215
64.448	-0.95795	-0.37154
64.548	-0.95855	-0.37093
64.647	-0.95816	-0.37031
64.746	-0.95759	-0.3697
64.845	-0.95693	-0.36909
64.945	-0.95582	-0.36847
65.044	-0.95375	-0.36786
65.143	-0.95012	-0.36725
65.243	-0.94613	-0.36664
65.342	-0.94183	-0.36603
65.441	-0.93797	-0.36541
65.541	-0.93473	-0.3648
65.64	-0.93138	-0.36419
65.739	-0.92781	-0.36358
65.838	-0.92425	-0.36297
65.938	-0.92019	-0.36236
66.037	-0.91537	-0.36175
66.136	-0.91083	-0.36114
66.236	-0.90617	-0.36052
66.335	-0.90173	-0.35991
66.434	-0.89728	-0.3593
66.534	-0.89333	-0.35869
66.633	-0.88873	-0.35808
66.732	-0.88327	-0.35747
66.831	-0.87805	-0.35686
66.931	-0.87264	-0.35626
67.03	-0.86775	-0.35565
67.129	-0.86425	-0.35504
67.229	-0.86059	-0.35443
67.328	-0.85656	-0.35382
67.427	-0.85229	-0.35321
67.527	-0.8474	-0.3526
67.626	-0.84253	-0.35199
67.725	-0.83688	-0.35139
67.825	-0.83131	-0.35078
67.924	-0.82613	-0.35017
68.023	-0.82186	-0.34956
68.122	-0.81779	-0.34896
68.222	-0.81341	-0.34835
68.321	-0.80881	-0.34774
68.42	-0.80345	-0.34714
68.52	-0.79882	-0.34653
68.619	-0.79497	-0.34592
68.718	-0.79118	-0.34532
68.818	-0.78806	-0.34471
68.917	-0.78478	-0.3441
69.016	-0.78132	-0.3435
69.115	-0.77746	-0.34289
69.215	-0.7728	-0.34229
69.314	-0.76805	-0.34168
69.413	-0.76263	-0.34108
69.513	-0.75704	-0.34047
69.612	-0.75128	-0.33987
69.711	-0.74518	-0.33926
69.811	-0.73919	-0.33866
69.91	-0.73296	-0.33805
70.009	-0.72743	-0.33745
70.108	-0.72158	-0.33684
70.208	-0.71543	-0.33624
70.307	-0.70871	-0.33564
70.406	-0.70082	-0.33503
70.506	-0.69289	-0.33443
70.605	-0.68579	-0.33383
70.704	-0.67955	-0.33322
70.804	-0.67421	-0.33262
70.903	-0.66926	-0.33202
71.002	-0.66377	-0.33142
71.102	-0.65795	-0.33081
71.201	-0.65157	-0.33021
71.3	-0.64489	-0.32961
71.399	-0.63776	-0.32901
71.499	-0.63107	-0.32841
71.598	-0.62429	-0.3278
71.697	-0.61718	-0.3272
71.797	-0.60934	-0.3266
71.896	-0.60006	-0.326
71.995	-0.59543	-0.3254
72.095	-0.58986	-0.3248
72.194	-0.58463	-0.3242
72.293	-0.57991	-0.3236
72.392	-0.57609	-0.323
72.492	-0.57347	-0.3224
72.591	-0.57075	-0.3218
72.69	-0.56822	-0.3212
72.79	-0.56574	-0.3206
72.889	-0.56373	-0.32
72.988	-0.56255	-0.3194
73.088	-0.56153	-0.3188
73.187	-0.56094	-0.3182
73.286	-0.55998	-0.31761
73.385	-0.55818	-0.31701
73.485	-0.55505	-0.31641
73.584	-0.55134	-0.31581
73.683	-0.54801	-0.31521
73.783	-0.54666	-0.31461
73.882	-0.54844	-0.31402
73.981	-0.55256	-0.31342
74.081	-0.55709	-0.31282
74.18	-0.56105	-0.31223
74.279	-0.56424	-0.31163
74.379	-0.567	-0.31103
74.478	-0.57038	-0.31043
74.577	-0.57433	-0.30984
74.676	-0.57871	-0.30924
74.776	-0.58253	-0.30865
74.875	-0.58613	-0.30805
74.974	-0.58876	-0.30745
75.074	-0.59073	-0.30686
75.173	-0.59254	-0.30626
75.272	-0.59422	-0.30567
75.372	-0.59604	-0.30507
75.471	-0.59827	-0.30448
75.57	-0.60046	-0.30388
75.669	-0.60222	-0.30329
75.769	-0.60407	-0.30269
75.868	-0.60535	-0.3021
75.967	-0.60703	-0.30151
76.067	-0.60942	-0.30091
76.166	-0.61216	-0.30032
76.265	-0.61556	-0.29972
76.365	-0.61917	-0.29913
76.464	-0.62156	-0.29854
76.563	-0.62359	-0.29794
76.662	-0.62551	-0.29735
76.762	-0.62765	-0.29676
76.861	-0.63122	-0.29617
76.96	-0.6368	-0.29557
77.06	-0.64262	-0.29498
77.159	-0.6479	-0.29439
77.258	-0.65287	-0.2938
77.358	-0.6562	-0.29321
77.457	-0.6596	-0.29261
77.556	-0.66315	-0.29202
77.656	-0.66736	-0.29143
77.755	-0.67213	-0.29084
77.854	-0.67688	-0.29025
77.953	-0.68188	-0.28966
78.053	-0.68647	-0.28907
78.152	-0.69067	-0.28848
78.251	-0.69518	-0.28789
78.351	-0.69944	-0.2873
78.45	-0.70308	-0.28671
78.549	-0.70653	-0.28612
78.649	-0.70888	-0.28553
78.748	-0.71033	-0.28494
78.847	-0.71136	-0.28435
78.946	-0.71177	-0.28376
79.046	-0.71222	-0.28317
79.145	-0.71352	-0.28258
79.244	-0.71526	-0.28199
79.344	-0.71667	-0.28141
79.443	-0.71806	-0.28082
79.542	-0.7199	-0.28023
79.642	-0.72255	-0.27964
79.741	-0.72765	-0.27905
79.84	-0.73508	-0.27847
79.939	-0.74413	-0.27788
80.039	-0.75452	-0.27729
80.138	-0.76559	-0.27671
80.237	-0.77764	-0.27612
80.337	-0.79022	-0.27553
80.436	-0.80347	-0.27495
80.535	-0.81763	-0.27436
80.635	-0.83191	-0.27377
80.734	-0.84636	-0.27319
80.833	-0.86109	-0.2726
